
[Name]
fluid

[Data]
X [ m ], Y [ m ], Z [ m ], Pressure [ Pa ], Velocity u [ m s^-1 ], Velocity u_Scalar [ m s^-1 ], Velocity v [ m s^-1 ], Velocity v_Scalar [ m s^-1 ], Velocity w [ m s^-1 ], X [ m ], Y [ m ], Z [ m ]
5.05460024e-01, 2.61284807e-03, 5.00000024e-04, 1.28531276e-04, 4.20367206e-03, 4.11287090e-03, 4.56131602e-06, 4.42858573e-06, 0.00000000e+00, 5.05460024e-01, 2.61284807e-03, 5.00000024e-04
5.02919972e-01, 2.61281081e-03, 5.00000024e-04, 2.60102883e-04, 4.21131821e-03, 4.12034197e-03, 4.33542209e-06, 4.20587412e-06, 0.00000000e+00, 5.02919972e-01, 2.61281081e-03, 5.00000024e-04
5.00379980e-01, 2.61277333e-03, 5.00000024e-04, 3.89182242e-04, 4.21685912e-03, 4.12572920e-03, 4.68416329e-06, 4.55150121e-06, 0.00000000e+00, 5.00379980e-01, 2.61277333e-03, 5.00000024e-04
4.97839987e-01, 2.61273608e-03, 5.00000024e-04, 5.20548958e-04, 4.22364986e-03, 4.13236255e-03, 4.69067254e-06, 4.55754434e-06, 0.00000000e+00, 4.97839987e-01, 2.61273608e-03, 5.00000024e-04
4.95299995e-01, 2.61269859e-03, 5.00000024e-04, 6.51467068e-04, 4.23013885e-03, 4.13869275e-03, 4.77322965e-06, 4.64036793e-06, 0.00000000e+00, 4.95299995e-01, 2.61269859e-03, 5.00000024e-04
4.92760003e-01, 2.61266134e-03, 5.00000024e-04, 7.83147465e-04, 4.23688255e-03, 4.14528325e-03, 4.78182574e-06, 4.64974437e-06, 0.00000000e+00, 4.92760003e-01, 2.61266134e-03, 5.00000024e-04
4.90220010e-01, 2.61262385e-03, 5.00000024e-04, 9.15072276e-04, 4.24358994e-03, 4.15183837e-03, 4.79838172e-06, 4.66723714e-06, 0.00000000e+00, 4.90220010e-01, 2.61262385e-03, 5.00000024e-04
4.87679988e-01, 2.61258660e-03, 5.00000024e-04, 1.04745908e-03, 4.25037369e-03, 4.15845821e-03, 4.80152812e-06, 4.67135624e-06, 0.00000000e+00, 4.87679988e-01, 2.61258660e-03, 5.00000024e-04
4.85139996e-01, 2.61254911e-03, 5.00000024e-04, 1.18020503e-03, 4.25718026e-03, 4.16510133e-03, 4.80616882e-06, 4.67699056e-06, 0.00000000e+00, 4.85139996e-01, 2.61254911e-03, 5.00000024e-04
4.82600003e-01, 2.61251186e-03, 5.00000024e-04, 1.31334737e-03, 4.26403247e-03, 4.17179521e-03, 4.80911876e-06, 4.68092367e-06, 0.00000000e+00, 4.82600003e-01, 2.61251186e-03, 5.00000024e-04
4.80060011e-01, 2.61247437e-03, 5.00000024e-04, 1.44686433e-03, 4.27092146e-03, 4.17852262e-03, 4.81305051e-06, 4.68581220e-06, 0.00000000e+00, 4.80060011e-01, 2.61247437e-03, 5.00000024e-04
4.77519989e-01, 2.61243712e-03, 5.00000024e-04, 1.58076140e-03, 4.27785330e-03, 4.18529706e-03, 4.81756706e-06, 4.69125416e-06, 0.00000000e+00, 4.77519989e-01, 2.61243712e-03, 5.00000024e-04
4.74979997e-01, 2.61239964e-03, 5.00000024e-04, 1.71503006e-03, 4.28482797e-03, 4.19210689e-03, 4.82318410e-06, 4.69775023e-06, 0.00000000e+00, 4.74979997e-01, 2.61239964e-03, 5.00000024e-04
4.72440004e-01, 2.61236238e-03, 5.00000024e-04, 1.84967113e-03, 4.29184781e-03, 4.19895677e-03, 4.82988162e-06, 4.70527812e-06, 0.00000000e+00, 4.72440004e-01, 2.61236238e-03, 5.00000024e-04
4.69900012e-01, 2.61232490e-03, 5.00000024e-04, 1.98468030e-03, 4.29891469e-03, 4.20585833e-03, 4.83776876e-06, 4.71396015e-06, 0.00000000e+00, 4.69900012e-01, 2.61232490e-03, 5.00000024e-04
4.67359990e-01, 2.61228764e-03, 5.00000024e-04, 2.12005922e-03, 4.30603046e-03, 4.21280880e-03, 4.84684870e-06, 4.72379088e-06, 0.00000000e+00, 4.67359990e-01, 2.61228764e-03, 5.00000024e-04
4.64819998e-01, 2.61225016e-03, 5.00000024e-04, 2.25580228e-03, 4.31319652e-03, 4.21980768e-03, 4.85714372e-06, 4.73478894e-06, 0.00000000e+00, 4.64819998e-01, 2.61225016e-03, 5.00000024e-04
4.62280005e-01, 2.61221291e-03, 5.00000024e-04, 2.39191204e-03, 4.32041520e-03, 4.22685733e-03, 4.86866702e-06, 4.74696617e-06, 0.00000000e+00, 4.62280005e-01, 2.61221291e-03, 5.00000024e-04
4.59740013e-01, 2.61217542e-03, 5.00000024e-04, 2.52838666e-03, 4.32768743e-03, 4.23395820e-03, 4.88143951e-06, 4.76033983e-06, 0.00000000e+00, 4.59740013e-01, 2.61217542e-03, 5.00000024e-04
4.57199991e-01, 2.61213817e-03, 5.00000024e-04, 2.66522821e-03, 4.33501601e-03, 4.24111309e-03, 4.89548347e-06, 4.77493404e-06, 0.00000000e+00, 4.57199991e-01, 2.61213817e-03, 5.00000024e-04
4.54659998e-01, 2.61210068e-03, 5.00000024e-04, 2.80243414e-03, 4.34240140e-03, 4.24832245e-03, 4.91082847e-06, 4.79077335e-06, 0.00000000e+00, 4.54659998e-01, 2.61210068e-03, 5.00000024e-04
4.52120006e-01, 2.61206343e-03, 5.00000024e-04, 2.94000725e-03, 4.34984639e-03, 4.25559282e-03, 4.92750496e-06, 4.80789322e-06, 0.00000000e+00, 4.52120006e-01, 2.61206343e-03, 5.00000024e-04
4.49580014e-01, 2.61202594e-03, 5.00000024e-04, 3.07794730e-03, 4.35735146e-03, 4.26292652e-03, 4.94555388e-06, 4.82633232e-06, 0.00000000e+00, 4.49580014e-01, 2.61202594e-03, 5.00000024e-04
4.47039992e-01, 2.61198869e-03, 5.00000024e-04, 3.21625778e-03, 4.36491845e-03, 4.27031191e-03, 4.96502253e-06, 4.84612156e-06, 0.00000000e+00, 4.47039992e-01, 2.61198869e-03, 5.00000024e-04
4.44499999e-01, 2.61195120e-03, 5.00000024e-04, 3.35493684e-03, 4.37254878e-03, 4.27775737e-03, 4.98595409e-06, 4.86730960e-06, 0.00000000e+00, 4.44499999e-01, 2.61195120e-03, 5.00000024e-04
4.41960007e-01, 2.61191395e-03, 5.00000024e-04, 3.49398935e-03, 4.38024430e-03, 4.28527733e-03, 5.00838541e-06, 4.88994692e-06, 0.00000000e+00, 4.41960007e-01, 2.61191395e-03, 5.00000024e-04
4.39419985e-01, 2.61187647e-03, 5.00000024e-04, 3.63341765e-03, 4.38800594e-03, 4.29285970e-03, 5.03234924e-06, 4.91404853e-06, 0.00000000e+00, 4.39419985e-01, 2.61187647e-03, 5.00000024e-04
4.36879992e-01, 2.61183921e-03, 5.00000024e-04, 3.77322128e-03, 4.39583557e-03, 4.30050585e-03, 5.05786647e-06, 4.93963398e-06, 0.00000000e+00, 4.36879992e-01, 2.61183921e-03, 5.00000024e-04
4.34340000e-01, 2.61180173e-03, 5.00000024e-04, 3.91340535e-03, 4.40373458e-03, 4.30821767e-03, 5.08495123e-06, 4.96671464e-06, 0.00000000e+00, 4.34340000e-01, 2.61180173e-03, 5.00000024e-04
4.31800008e-01, 2.61176447e-03, 5.00000024e-04, 4.05397220e-03, 4.41170391e-03, 4.31599375e-03, 5.11361577e-06, 4.99529779e-06, 0.00000000e+00, 4.31800008e-01, 2.61176447e-03, 5.00000024e-04
4.29259986e-01, 2.61172699e-03, 5.00000024e-04, 4.19492647e-03, 4.41974495e-03, 4.32384992e-03, 5.14388557e-06, 5.02542071e-06, 0.00000000e+00, 4.29259986e-01, 2.61172699e-03, 5.00000024e-04
4.26719993e-01, 2.61168974e-03, 5.00000024e-04, 4.33626957e-03, 4.42785909e-03, 4.33177687e-03, 5.17585113e-06, 5.05714843e-06, 0.00000000e+00, 4.26719993e-01, 2.61168974e-03, 5.00000024e-04
4.24180001e-01, 2.61165225e-03, 5.00000024e-04, 4.47800662e-03, 4.43604728e-03, 4.33977274e-03, 5.20972753e-06, 5.09067149e-06, 0.00000000e+00, 4.24180001e-01, 2.61165225e-03, 5.00000024e-04
4.21640009e-01, 2.61161500e-03, 5.00000024e-04, 4.62014368e-03, 4.44431044e-03, 4.34784917e-03, 5.24593270e-06, 5.12638508e-06, 0.00000000e+00, 4.21640009e-01, 2.61161500e-03, 5.00000024e-04
4.19099987e-01, 2.61157751e-03, 5.00000024e-04, 4.76268400e-03, 4.45264950e-03, 4.35598660e-03, 5.28525834e-06, 5.16499995e-06, 0.00000000e+00, 4.19099987e-01, 2.61157751e-03, 5.00000024e-04
4.16559994e-01, 2.61154026e-03, 5.00000024e-04, 4.90563409e-03, 4.46106633e-03, 4.36420273e-03, 5.32894137e-06, 5.20769072e-06, 0.00000000e+00, 4.16559994e-01, 2.61154026e-03, 5.00000024e-04
4.14020002e-01, 2.61150277e-03, 5.00000024e-04, 5.04900143e-03, 4.46956092e-03, 4.37250407e-03, 5.37815140e-06, 5.25557016e-06, 0.00000000e+00, 4.14020002e-01, 2.61150277e-03, 5.00000024e-04
4.11480010e-01, 2.61146552e-03, 5.00000024e-04, 5.19279065e-03, 4.47813328e-03, 4.38087713e-03, 5.43316901e-06, 5.30891339e-06, 0.00000000e+00, 4.11480010e-01, 2.61146552e-03, 5.00000024e-04
4.08939987e-01, 2.61142827e-03, 5.00000024e-04, 5.33700455e-03, 4.48678387e-03, 4.38932795e-03, 5.49313290e-06, 5.36694142e-06, 0.00000000e+00, 4.08939987e-01, 2.61142827e-03, 5.00000024e-04
4.06399995e-01, 2.61139078e-03, 5.00000024e-04, 5.48164314e-03, 4.49551269e-03, 4.39785235e-03, 5.55685892e-06, 5.42852513e-06, 0.00000000e+00, 4.06399995e-01, 2.61139078e-03, 5.00000024e-04
4.03860003e-01, 2.61135353e-03, 5.00000024e-04, 5.62671293e-03, 4.50432021e-03, 4.40644845e-03, 5.62373998e-06, 5.49308061e-06, 0.00000000e+00, 4.03860003e-01, 2.61135353e-03, 5.00000024e-04
4.01320010e-01, 2.61131604e-03, 5.00000024e-04, 5.77221392e-03, 4.51320829e-03, 4.41512978e-03, 5.69371059e-06, 5.56056420e-06, 0.00000000e+00, 4.01320010e-01, 2.61131604e-03, 5.00000024e-04
3.98779988e-01, 2.61127879e-03, 5.00000024e-04, 5.91815030e-03, 4.52217832e-03, 4.42389585e-03, 5.76677121e-06, 5.63098274e-06, 0.00000000e+00, 3.98779988e-01, 2.61127879e-03, 5.00000024e-04
3.96239996e-01, 2.61124130e-03, 5.00000024e-04, 6.06452301e-03, 4.53123124e-03, 4.43274388e-03, 5.84264535e-06, 5.70407201e-06, 0.00000000e+00, 3.96239996e-01, 2.61124130e-03, 5.00000024e-04
3.93700004e-01, 2.61120405e-03, 5.00000024e-04, 6.21133298e-03, 4.54036845e-03, 4.44166828e-03, 5.92096603e-06, 5.77947412e-06, 0.00000000e+00, 3.93700004e-01, 2.61120405e-03, 5.00000024e-04
3.91160011e-01, 2.61116656e-03, 5.00000024e-04, 6.35858206e-03, 4.54959180e-03, 4.45066951e-03, 6.00148269e-06, 5.85695398e-06, 0.00000000e+00, 3.91160011e-01, 2.61116656e-03, 5.00000024e-04
3.88619989e-01, 2.61112931e-03, 5.00000024e-04, 6.50627632e-03, 4.55890317e-03, 4.45976155e-03, 6.08397340e-06, 5.93631739e-06, 0.00000000e+00, 3.88619989e-01, 2.61112931e-03, 5.00000024e-04
3.86079997e-01, 2.61109183e-03, 5.00000024e-04, 6.65441249e-03, 4.56830394e-03, 4.46894905e-03, 6.16821308e-06, 6.01735610e-06, 0.00000000e+00, 3.86079997e-01, 2.61109183e-03, 5.00000024e-04
3.83540004e-01, 2.61105457e-03, 5.00000024e-04, 6.80299709e-03, 4.57779551e-03, 4.47822222e-03, 6.25405210e-06, 6.09991139e-06, 0.00000000e+00, 3.83540004e-01, 2.61105457e-03, 5.00000024e-04
3.81000012e-01, 2.61101709e-03, 5.00000024e-04, 6.95202965e-03, 4.58738022e-03, 4.48757736e-03, 6.34147818e-06, 6.18396143e-06, 0.00000000e+00, 3.81000012e-01, 2.61101709e-03, 5.00000024e-04
3.78459990e-01, 2.61097983e-03, 5.00000024e-04, 7.10151438e-03, 4.59705992e-03, 4.49703541e-03, 6.43059821e-06, 6.26963856e-06, 0.00000000e+00, 3.78459990e-01, 2.61097983e-03, 5.00000024e-04
3.75919998e-01, 2.61094235e-03, 5.00000024e-04, 7.25145079e-03, 4.60683648e-03, 4.50658612e-03, 6.52157451e-06, 6.35707647e-06, 0.00000000e+00, 3.75919998e-01, 2.61094235e-03, 5.00000024e-04
3.73380005e-01, 2.61090510e-03, 5.00000024e-04, 7.40184542e-03, 4.61671222e-03, 4.51622903e-03, 6.61456215e-06, 6.44641977e-06, 0.00000000e+00, 3.73380005e-01, 2.61090510e-03, 5.00000024e-04
3.70840013e-01, 2.61086761e-03, 5.00000024e-04, 7.55269593e-03, 4.62668948e-03, 4.52597486e-03, 6.70968166e-06, 6.53779398e-06, 0.00000000e+00, 3.70840013e-01, 2.61086761e-03, 5.00000024e-04
3.68299991e-01, 2.61083036e-03, 5.00000024e-04, 7.70401116e-03, 4.63677105e-03, 4.53582546e-03, 6.80699623e-06, 6.63126320e-06, 0.00000000e+00, 3.68299991e-01, 2.61083036e-03, 5.00000024e-04
3.65759999e-01, 2.61079287e-03, 5.00000024e-04, 7.85579160e-03, 4.64695878e-03, 4.54577431e-03, 6.90653178e-06, 6.72683473e-06, 0.00000000e+00, 3.65759999e-01, 2.61079287e-03, 5.00000024e-04
3.63220006e-01, 2.61075562e-03, 5.00000024e-04, 8.00803863e-03, 4.65725502e-03, 4.55583027e-03, 7.00830151e-06, 6.82453219e-06, 0.00000000e+00, 3.63220006e-01, 2.61075562e-03, 5.00000024e-04
3.60680014e-01, 2.61071813e-03, 5.00000024e-04, 8.16075969e-03, 4.66766302e-03, 4.56599751e-03, 7.11231496e-06, 6.92437197e-06, 0.00000000e+00, 3.60680014e-01, 2.61071813e-03, 5.00000024e-04
3.58139992e-01, 2.61068088e-03, 5.00000024e-04, 8.31395760e-03, 4.67818370e-03, 4.57627187e-03, 7.21856895e-06, 7.02634225e-06, 0.00000000e+00, 3.58139992e-01, 2.61068088e-03, 5.00000024e-04
3.55599999e-01, 2.61064339e-03, 5.00000024e-04, 8.46763514e-03, 4.68882173e-03, 4.58666589e-03, 7.32703938e-06, 7.13043437e-06, 0.00000000e+00, 3.55599999e-01, 2.61064339e-03, 5.00000024e-04
3.53060007e-01, 2.61060614e-03, 5.00000024e-04, 8.62179790e-03, 4.69957851e-03, 4.59717354e-03, 7.43775399e-06, 7.23665289e-06, 0.00000000e+00, 3.53060007e-01, 2.61060614e-03, 5.00000024e-04
3.50519985e-01, 2.61056866e-03, 5.00000024e-04, 8.77645612e-03, 4.71045636e-03, 4.60779853e-03, 7.55090514e-06, 7.34517380e-06, 0.00000000e+00, 3.50519985e-01, 2.61056866e-03, 5.00000024e-04
3.47979993e-01, 2.61053140e-03, 5.00000024e-04, 8.93161073e-03, 4.72145900e-03, 4.61854599e-03, 7.66663470e-06, 7.45614716e-06, 0.00000000e+00, 3.47979993e-01, 2.61053140e-03, 5.00000024e-04
3.45440000e-01, 2.61049392e-03, 5.00000024e-04, 9.08727106e-03, 4.73258831e-03, 4.62942151e-03, 7.78467620e-06, 7.56932832e-06, 0.00000000e+00, 3.45440000e-01, 2.61049392e-03, 5.00000024e-04
3.42900008e-01, 2.61045666e-03, 5.00000024e-04, 9.24344081e-03, 4.74384660e-03, 4.64042090e-03, 7.90456306e-06, 7.68425252e-06, 0.00000000e+00, 3.42900008e-01, 2.61045666e-03, 5.00000024e-04
3.40359986e-01, 2.61041918e-03, 5.00000024e-04, 9.40013025e-03, 4.75523621e-03, 4.65154368e-03, 8.02615341e-06, 7.80076243e-06, 0.00000000e+00, 3.40359986e-01, 2.61041918e-03, 5.00000024e-04
3.37819993e-01, 2.61038193e-03, 5.00000024e-04, 9.55734588e-03, 4.76675946e-03, 4.66280198e-03, 8.14971736e-06, 7.91911862e-06, 0.00000000e+00, 3.37819993e-01, 2.61038193e-03, 5.00000024e-04
3.35280001e-01, 2.61034444e-03, 5.00000024e-04, 9.71509796e-03, 4.77841822e-03, 4.67419112e-03, 8.27549502e-06, 8.03952753e-06, 0.00000000e+00, 3.35280001e-01, 2.61034444e-03, 5.00000024e-04
3.32740009e-01, 2.61030719e-03, 5.00000024e-04, 9.87339392e-03, 4.79021482e-03, 4.68571624e-03, 8.40348912e-06, 8.16199827e-06, 0.00000000e+00, 3.32740009e-01, 2.61030719e-03, 5.00000024e-04
3.30199987e-01, 2.61026970e-03, 5.00000024e-04, 1.00322412e-02, 4.80215019e-03, 4.69737872e-03, 8.53357415e-06, 8.28640896e-06, 0.00000000e+00, 3.30199987e-01, 2.61026970e-03, 5.00000024e-04
3.27659994e-01, 2.61023245e-03, 5.00000024e-04, 1.01916473e-02, 4.81422711e-03, 4.70917718e-03, 8.66561550e-06, 8.41261681e-06, 0.00000000e+00, 3.27659994e-01, 2.61023245e-03, 5.00000024e-04
3.25120002e-01, 2.61019496e-03, 5.00000024e-04, 1.03516215e-02, 4.82644653e-03, 4.72111674e-03, 8.79962317e-06, 8.54064729e-06, 0.00000000e+00, 3.25120002e-01, 2.61019496e-03, 5.00000024e-04
3.22580010e-01, 2.61015771e-03, 5.00000024e-04, 1.05121704e-02, 4.83881030e-03, 4.73319646e-03, 8.93567176e-06, 8.67056224e-06, 0.00000000e+00, 3.22580010e-01, 2.61015771e-03, 5.00000024e-04
3.20039988e-01, 2.61012022e-03, 5.00000024e-04, 1.06733013e-02, 4.85132169e-03, 4.74541914e-03, 9.07387766e-06, 8.80247626e-06, 0.00000000e+00, 3.20039988e-01, 2.61012022e-03, 5.00000024e-04
3.17499995e-01, 2.61008297e-03, 5.00000024e-04, 1.08350208e-02, 4.86398116e-03, 4.75778803e-03, 9.21445280e-06, 8.93659126e-06, 0.00000000e+00, 3.17499995e-01, 2.61008297e-03, 5.00000024e-04
3.14960003e-01, 2.61004549e-03, 5.00000024e-04, 1.09973345e-02, 4.87679336e-03, 4.77030315e-03, 9.35766275e-06, 9.07315462e-06, 0.00000000e+00, 3.14960003e-01, 2.61004549e-03, 5.00000024e-04
3.12420011e-01, 2.61000823e-03, 5.00000024e-04, 1.11602489e-02, 4.88975924e-03, 4.78297519e-03, 9.50379490e-06, 9.21245646e-06, 0.00000000e+00, 3.12420011e-01, 2.61000823e-03, 5.00000024e-04
3.09879988e-01, 2.60997075e-03, 5.00000024e-04, 1.13237696e-02, 4.90288250e-03, 4.79579531e-03, 9.65313848e-06, 9.35474054e-06, 0.00000000e+00, 3.09879988e-01, 2.60997075e-03, 5.00000024e-04
3.07339996e-01, 2.60993349e-03, 5.00000024e-04, 1.14879040e-02, 4.91616596e-03, 4.80877329e-03, 9.80597088e-06, 9.50028334e-06, 0.00000000e+00, 3.07339996e-01, 2.60993349e-03, 5.00000024e-04
3.04800004e-01, 2.60989601e-03, 5.00000024e-04, 1.16526587e-02, 4.92961332e-03, 4.82191611e-03, 9.96255767e-06, 9.64934588e-06, 0.00000000e+00, 3.04800004e-01, 2.60989601e-03, 5.00000024e-04
3.02260011e-01, 2.60985876e-03, 5.00000024e-04, 1.18180346e-02, 4.94322693e-03, 4.83521633e-03, 1.01231599e-05, 9.80214372e-06, 0.00000000e+00, 3.02260011e-01, 2.60985876e-03, 5.00000024e-04
2.99719989e-01, 2.60982127e-03, 5.00000024e-04, 1.19840465e-02, 4.95701190e-03, 4.84868465e-03, 1.02880413e-05, 9.95893970e-06, 0.00000000e+00, 2.99719989e-01, 2.60982127e-03, 5.00000024e-04
2.97179997e-01, 2.60978402e-03, 5.00000024e-04, 1.21506918e-02, 4.97097010e-03, 4.86232201e-03, 1.04574729e-05, 1.01199867e-05, 0.00000000e+00, 2.97179997e-01, 2.60978402e-03, 5.00000024e-04
2.94640005e-01, 2.60974653e-03, 5.00000024e-04, 1.23179834e-02, 4.98510664e-03, 4.87613399e-03, 1.06317357e-05, 1.02855447e-05, 0.00000000e+00, 2.94640005e-01, 2.60974653e-03, 5.00000024e-04
2.92100012e-01, 2.60970928e-03, 5.00000024e-04, 1.24859270e-02, 4.99942433e-03, 4.89012571e-03, 1.08111153e-05, 1.04558903e-05, 0.00000000e+00, 2.92100012e-01, 2.60970928e-03, 5.00000024e-04
2.89559990e-01, 2.60967179e-03, 5.00000024e-04, 1.26545271e-02, 5.01392828e-03, 4.90429532e-03, 1.09958983e-05, 1.06312746e-05, 0.00000000e+00, 2.89559990e-01, 2.60967179e-03, 5.00000024e-04
2.87019998e-01, 2.60963454e-03, 5.00000024e-04, 1.28237922e-02, 5.02862222e-03, 4.91865352e-03, 1.11863719e-05, 1.08119884e-05, 0.00000000e+00, 2.87019998e-01, 2.60963454e-03, 5.00000024e-04
2.84480006e-01, 2.60959705e-03, 5.00000024e-04, 1.29937297e-02, 5.04350988e-03, 4.93320543e-03, 1.13828155e-05, 1.09983039e-05, 0.00000000e+00, 2.84480006e-01, 2.60959705e-03, 5.00000024e-04
2.81940013e-01, 2.60955980e-03, 5.00000024e-04, 1.31643489e-02, 5.05859638e-03, 4.94794548e-03, 1.15854882e-05, 1.11904355e-05, 0.00000000e+00, 2.81940013e-01, 2.60955980e-03, 5.00000024e-04
2.79399991e-01, 2.60952231e-03, 5.00000024e-04, 1.33356554e-02, 5.07388590e-03, 4.96288296e-03, 1.17946238e-05, 1.13886308e-05, 0.00000000e+00, 2.79399991e-01, 2.60952231e-03, 5.00000024e-04
2.76859999e-01, 2.60948506e-03, 5.00000024e-04, 1.35076558e-02, 5.08938357e-03, 4.97802859e-03, 1.20104050e-05, 1.15930925e-05, 0.00000000e+00, 2.76859999e-01, 2.60948506e-03, 5.00000024e-04
2.74320006e-01, 2.60944758e-03, 5.00000024e-04, 1.36803603e-02, 5.10509405e-03, 4.99338191e-03, 1.22329566e-05, 1.18039343e-05, 0.00000000e+00, 2.74320006e-01, 2.60944758e-03, 5.00000024e-04
2.71780014e-01, 2.60941032e-03, 5.00000024e-04, 1.38537800e-02, 5.12102293e-03, 5.00894431e-03, 1.24623211e-05, 1.20212007e-05, 0.00000000e+00, 2.71780014e-01, 2.60941032e-03, 5.00000024e-04
2.69239992e-01, 2.60937284e-03, 5.00000024e-04, 1.40279187e-02, 5.13717579e-03, 5.02472790e-03, 1.26984505e-05, 1.22448955e-05, 0.00000000e+00, 2.69239992e-01, 2.60937284e-03, 5.00000024e-04
2.66700000e-01, 2.60933558e-03, 5.00000024e-04, 1.42027885e-02, 5.15355775e-03, 5.04073827e-03, 1.29411856e-05, 1.24748931e-05, 0.00000000e+00, 2.66700000e-01, 2.60933558e-03, 5.00000024e-04
2.64160007e-01, 2.60929810e-03, 5.00000024e-04, 1.43784005e-02, 5.17017534e-03, 5.05697774e-03, 1.31902398e-05, 1.27109315e-05, 0.00000000e+00, 2.64160007e-01, 2.60929810e-03, 5.00000024e-04
2.61619985e-01, 2.60926085e-03, 5.00000024e-04, 1.45547651e-02, 5.18703461e-03, 5.07345051e-03, 1.34452066e-05, 1.29526470e-05, 0.00000000e+00, 2.61619985e-01, 2.60926085e-03, 5.00000024e-04
2.59079993e-01, 2.60922336e-03, 5.00000024e-04, 1.47318924e-02, 5.20414254e-03, 5.09016635e-03, 1.37055704e-05, 1.31995657e-05, 0.00000000e+00, 2.59079993e-01, 2.60922336e-03, 5.00000024e-04
2.56540000e-01, 2.60918611e-03, 5.00000024e-04, 1.49097973e-02, 5.22150379e-03, 5.10713598e-03, 1.39707554e-05, 1.34511693e-05, 0.00000000e+00, 2.56540000e-01, 2.60918611e-03, 5.00000024e-04
2.54000008e-01, 2.60914862e-03, 5.00000024e-04, 1.50884921e-02, 5.23912581e-03, 5.12435939e-03, 1.42402005e-05, 1.37068673e-05, 0.00000000e+00, 2.54000008e-01, 2.60914862e-03, 5.00000024e-04
2.51459986e-01, 2.60911137e-03, 5.00000024e-04, 1.52679961e-02, 5.25701232e-03, 5.14183939e-03, 1.45134545e-05, 1.39662006e-05, 0.00000000e+00, 2.51459986e-01, 2.60911137e-03, 5.00000024e-04
2.48919994e-01, 2.60907412e-03, 5.00000024e-04, 1.54483244e-02, 5.27516939e-03, 5.15958667e-03, 1.47901683e-05, 1.42288372e-05, 0.00000000e+00, 2.48919994e-01, 2.60907412e-03, 5.00000024e-04
